iter	Passed	Remaining
0	278	277923
1	435	217527
2	549	182543
3	649	161783
4	751	149503
5	848	140572
6	943	133901
7	1045	129666
8	1152	126875
9	1244	123243
10	1355	121896
11	1454	119727
12	1584	120312
13	1692	119198
14	1789	117500
15	1908	117391
16	2011	116335
17	2125	115947
18	2238	115595
19	2346	114966
20	2447	114092
21	2543	113088
22	2642	112266
23	2755	112051
24	2863	111676
25	2972	111355
26	3077	110914
27	3164	109855
28	3281	109888
29	3385	109473
30	3477	108694
31	3589	108568
32	3704	108565
33	3808	108203
34	3918	108043
35	4023	107747
36	4140	107763
37	4240	107347
38	4330	106696
39	4457	106983
40	4580	107150
41	4673	106599
42	4773	106245
43	4885	106157
44	4989	105884
45	5095	105686
46	5200	105443
47	5301	105146
48	5398	104779
49	5478	104082
50	5578	103809
51	5681	103586
52	5779	103265
53	5883	103078
54	5985	102847
55	6085	102584
56	6206	102681
57	6327	102765
58	6432	102597
59	6540	102473
60	6646	102306
61	6739	101963
62	6830	101587
63	6915	101140
64	7034	101190
65	7135	100982
66	7243	100868
67	7340	100605
68	7455	100598
69	7545	100245
70	7681	100508
71	7791	100425
72	7901	100338
73	8012	100261
74	8106	99982
75	8211	99836
76	8308	99596
77	8412	99440
78	8511	99228
79	8605	98966
80	8711	98834
81	8813	98672
82	8907	98417
83	9007	98226
84	9119	98166
85	9224	98036
86	9324	97853
87	9424	97671
88	9520	97451
89	9655	97624
90	9771	97607
91	9884	97558
92	9985	97389
93	10089	97246
94	10193	97108
95	10296	96959
96	10396	96785
97	10493	96587
98	10589	96379
99	10688	96193
100	10786	96010
101	10882	95811
102	10982	95642
103	11078	95444
104	11180	95303
105	11298	95293
106	11413	95253
107	11558	95461
108	11655	95278
109	11754	95104
110	11855	94949
111	11967	94883
112	12073	94772
113	12166	94558
114	12256	94324
115	12352	94136
116	12453	93983
117	12552	93823
118	12648	93639
119	12763	93595
120	12865	93461
121	12963	93293
122	13062	93136
123	13165	93009
124	13266	92864
125	13368	92727
126	13497	92780
127	13603	92672
128	13711	92580
129	13806	92394
130	13893	92166
131	14006	92103
132	14118	92033
133	14218	91887
134	14316	91733
135	14461	91871
136	14564	91748
137	14658	91564
138	14765	91459
139	14869	91343
140	14980	91262
141	15090	91181
142	15201	91104
143	15300	90952
144	15395	90782
145	15477	90534
146	15588	90453
147	15696	90362
148	15806	90278
149	15911	90163
150	16009	90013
151	16104	89847
152	16245	89933
153	16356	89855
154	16471	89794
155	16578	89691
156	16681	89570
157	16771	89376
158	16872	89243
159	16973	89109
160	17077	88991
161	17190	88921
162	17294	88807
163	17395	88674
164	17496	88545
165	17596	88407
166	17700	88289
167	17863	88467
168	17988	88453
169	18151	88622
170	18264	88546
171	18371	88440
172	18484	88361
173	18589	88248
174	18703	88174
175	18818	88103
176	18914	87946
177	19012	87800
178	19114	87668
179	19225	87581
180	19315	87398
181	19427	87314
182	19563	87339
183	19677	87263
184	19771	87103
185	19878	86994
186	20012	87005
187	20126	86928
188	20225	86787
189	20323	86642
190	20418	86483
191	20537	86427
192	20695	86536
193	20811	86464
194	20913	86336
195	21020	86228
196	21134	86147
197	21250	86076
198	21347	85924
199	21450	85800
200	21553	85676
201	21657	85556
202	21776	85496
203	21915	85513
204	22014	85371
205	22130	85297
206	22248	85231
207	22364	85156
208	22460	85007
209	22575	84925
210	22681	84812
211	22790	84712
212	22897	84601
213	23011	84517
214	23138	84482
215	23243	84364
216	23349	84253
217	23455	84136
218	23575	84075
219	23711	84069
220	23823	83976
221	23926	83850
222	24031	83733
223	24128	83586
224	24235	83476
225	24333	83336
226	24430	83193
227	24533	83071
228	24626	82913
229	24732	82799
230	24828	82654
231	24933	82537
232	25038	82422
233	25135	82280
234	25231	82135
235	25320	81968
236	25418	81831
237	25520	81707
238	25659	81703
239	25758	81569
240	25884	81520
241	25987	81399
242	26091	81279
243	26203	81187
244	26318	81103
245	26410	80950
246	26517	80839
247	26614	80700
248	26703	80540
249	26798	80395
250	26903	80280
251	27017	80196
252	27112	80052
253	27215	79933
254	27326	79837
255	27445	79763
256	27541	79623
257	27643	79503
258	27756	79411
259	27898	79402
260	28019	79336
261	28129	79234
262	28236	79127
263	28344	79020
264	28451	78912
265	28564	78819
266	28666	78698
267	28780	78610
268	28881	78484
269	28982	78358
270	29134	78371
271	29239	78259
272	29337	78124
273	29439	78004
274	29537	77871
275	29662	77811
276	29762	77682
277	29883	77610
278	29995	77515
279	30120	77453
280	30276	77469
281	30373	77333
282	30475	77212
283	30576	77088
284	30684	76979
285	30854	77027
286	31049	77137
287	31230	77208
288	31377	77194
289	31507	77138
290	31682	77192
291	31858	77245
292	32000	77216
293	32154	77214
294	32265	77108
295	32369	76987
296	32474	76866
297	32600	76798
298	32721	76714
299	32837	76621
300	32980	76588
301	33328	77031
302	33617	77332
303	33781	77341
304	33963	77391
305	34133	77414
306	34343	77523
307	34549	77625
308	34691	77577
309	34849	77568
310	35031	77609
311	35301	77843
312	35494	77905
313	35701	77997
314	35856	77973
315	35985	77892
316	36113	77808
317	36236	77714
318	36324	77545
319	36411	77373
320	36484	77173
321	36572	77006
322	36649	76817
323	36725	76625
324	36813	76457
325	36932	76358
326	37049	76251
327	37199	76214
328	37317	76110
329	37397	75927
330	37490	75773
331	37587	75628
332	37675	75463
333	37799	75372
334	37967	75369
335	38151	75395
336	38316	75382
337	38503	75412
338	38674	75409
339	38841	75398
340	38990	75350
341	39190	75400
342	39348	75370
343	39475	75278
344	39598	75180
345	39724	75086
346	39850	74992
347	39969	74885
348	40067	74739
349	40181	74621
350	40297	74509
351	40411	74393
352	40517	74262
353	40620	74126
354	40739	74019
355	40849	73895
356	40955	73765
357	41061	73635
358	41170	73510
359	41285	73396
360	41418	73313
361	41532	73197
362	41650	73089
363	41764	72972
364	41848	72804
365	41977	72715
366	42110	72631
367	42221	72511
368	42330	72385
369	42451	72282
370	42583	72196
371	42761	72189
372	42910	72130
373	43061	72075
374	43191	71985
375	43319	71891
376	43436	71779
377	43545	71654
378	43687	71582
379	43813	71485
380	43954	71412
381	44108	71358
382	44260	71302
383	44455	71313
384	44666	71350
385	44827	71306
386	44989	71262
387	45115	71161
388	45228	71039
389	45424	71049
390	45687	71160
391	45857	71125
392	46011	71065
393	46169	71011
394	46345	70985
395	46485	70902
396	46638	70838
397	46770	70742
398	46918	70671
399	47063	70594
400	47218	70533
401	47339	70420
402	47482	70339
403	47659	70309
404	47821	70255
405	47969	70182
406	48104	70088
407	48263	70028
408	48407	69948
409	48569	69892
410	48707	69801
411	48837	69700
412	48990	69630
413	49133	69546
414	49365	69586
415	49503	69495
416	49647	69411
417	49786	69319
418	49928	69232
419	50083	69162
420	50261	69123
421	50399	69030
422	50529	68924
423	50674	68841
424	50844	68789
425	50994	68710
426	51141	68628
427	51294	68552
428	51425	68447
429	51549	68332
430	51713	68271
431	51878	68211
432	52062	68174
433	52282	68183
434	52429	68098
435	52546	67972
436	52680	67869
437	52817	67770
438	52952	67668
439	53089	67568
440	53236	67481
441	53360	67364
442	53472	67232
443	53675	67214
444	53852	67163
445	54027	67110
446	54170	67016
447	54350	66967
448	54546	66937
449	54697	66852
450	54858	66779
451	55010	66694
452	55162	66608
453	55314	66523
454	55474	66447
455	55612	66344
456	55771	66267
457	55937	66196
458	56099	66121
459	56184	65955
460	56364	65901
461	56511	65807
462	56636	65688
463	56780	65590
464	56940	65512
465	57098	65431
466	57251	65342
467	57370	65215
468	57487	65087
469	57611	64965
470	57697	64802
471	57820	64680
472	57967	64585
473	58114	64489
474	58267	64400
475	58413	64303
476	58579	64229
477	58706	64110
478	58898	64063
479	59063	63985
480	59173	63848
481	59319	63750
482	59459	63645
483	59573	63512
484	59693	63385
485	59815	63261
486	59936	63136
487	60056	63009
488	60158	62865
489	60281	62742
490	60378	62592
491	60483	62450
492	60589	62310
493	60706	62180
494	60872	62102
495	61027	62012
496	61171	61909
497	61295	61787
498	61404	61650
499	61552	61552
500	61677	61431
501	61822	61330
502	61921	61183
503	62037	61053
504	62197	60966
505	62325	60847
506	62447	60723
507	62568	60597
508	62683	60466
509	62805	60342
510	62957	60246
511	63112	60153
512	63256	60050
513	63375	59923
514	63510	59811
515	63629	59683
516	63753	59560
517	63889	59449
518	64040	59351
519	64148	59213
520	64271	59090
521	64378	58951
522	64502	58828
523	64615	58696
524	64720	58556
525	64846	58435
526	64959	58302
527	65073	58171
528	65191	58043
529	65307	57913
530	65437	57796
531	65542	57657
532	65640	57512
533	65752	57379
534	65854	57238
535	66034	57164
536	66158	57041
537	66264	56903
538	66387	56780
539	66501	56649
540	66654	56551
541	66807	56453
542	66932	56331
543	67069	56220
544	67182	56088
545	67333	55987
546	67510	55908
547	67607	55763
548	67749	55656
549	67932	55581
550	68061	55462
551	68179	55334
552	68307	55213
553	68431	55090
554	68560	54972
555	68688	54852
556	68833	54745
557	68946	54613
558	69066	54487
559	69200	54372
560	69392	54301
561	69527	54187
562	69661	54070
563	69777	53941
564	69913	53827
565	70147	53787
566	70269	53662
567	70407	53549
568	70590	53469
569	70734	53361
570	70864	53241
571	70992	53120
572	71133	53009
573	71287	52906
574	71418	52787
575	71543	52663
576	71675	52545
577	71811	52429
578	71944	52312
579	72073	52191
580	72205	52072
581	72343	51957
582	72478	51841
583	72631	51737
584	72760	51616
585	72914	51512
586	73049	51395
587	73179	51275
588	73314	51158
589	73447	51039
590	73592	50929
591	73740	50821
592	73865	50696
593	74001	50580
594	74143	50467
595	74283	50352
596	74408	50228
597	74543	50111
598	74680	49994
599	74800	49866
600	74950	49759
601	75085	49641
602	75347	49606
603	75543	49528
604	75707	49429
605	75897	49346
606	76110	49277
607	76277	49178
608	76433	49073
609	76575	48958
610	76729	48850
611	76876	48738
612	77021	48625
613	77161	48508
614	77298	48389
615	77440	48274
616	77608	48175
617	77756	48063
618	77887	47940
619	78039	47830
620	78180	47714
621	78344	47611
622	78515	47512
623	78670	47403
624	78783	47270
625	78906	47142
626	79027	47013
627	79142	46880
628	79249	46743
629	79358	46607
630	79469	46472
631	79585	46341
632	79693	46204
633	79804	46070
634	79926	45942
635	80043	45810
636	80152	45675
637	80265	45542
638	80371	45405
639	80492	45277
640	80604	45143
641	80694	44998
642	80802	44862
643	80926	44735
644	81046	44606
645	81149	44468
646	81256	44333
647	81362	44197
648	81490	44072
649	81598	43937
650	81710	43805
651	81809	43665
652	81918	43531
653	82029	43397
654	82146	43268
655	82263	43138
656	82372	43004
657	82480	42869
658	82593	42738
659	82703	42604
660	82848	42489
661	82953	42353
662	83081	42229
663	83202	42102
664	83336	41981
665	83482	41866
666	83608	41741
667	83728	41613
668	83839	41480
669	83947	41347
670	84168	41268
671	84398	41194
672	84570	41091
673	84763	40998
674	84924	40889
675	85056	40766
676	85167	40634
677	85282	40502
678	85427	40386
679	85541	40254
680	85670	40130
681	85798	40005
682	85936	39885
683	86052	39755
684	86166	39624
685	86275	39490
686	86430	39378
687	86562	39254
688	86692	39131
689	86800	38997
690	86950	38882
691	87127	38779
692	87300	38674
693	87413	38542
694	87535	38414
695	87654	38285
696	87767	38154
697	87890	38026
698	88007	37897
699	88120	37766
700	88227	37631
701	88347	37503
702	88469	37376
703	88585	37246
704	88718	37123
705	88844	36997
706	88972	36872
707	89080	36739
708	89214	36616
709	89362	36500
710	89471	36367
711	89583	36235
712	89706	36109
713	89827	35981
714	89934	35847
715	90036	35712
716	90144	35579
717	90259	35450
718	90369	35318
719	90466	35181
720	90583	35052
721	90703	34924
722	90819	34795
723	90939	34667
724	91025	34527
725	91132	34394
726	91239	34261
727	91350	34130
728	91475	34005
729	91601	33880
730	91697	33743
731	91807	33612
732	91936	33488
733	92046	33357
734	92167	33230
735	92286	33102
736	92394	32971
737	92510	32842
738	92616	32710
739	92728	32580
740	92853	32454
741	92966	32325
742	93077	32195
743	93189	32065
744	93300	31934
745	93429	31811
746	93548	31683
747	93677	31559
748	93797	31432
749	93919	31306
750	94039	31179
751	94164	31054
752	94279	30925
753	94397	30798
754	94510	30669
755	94629	30541
756	94735	30410
757	94851	30282
758	94966	30154
759	95078	30024
760	95187	29894
761	95293	29763
762	95413	29637
763	95532	29510
764	95669	29388
765	95788	29261
766	95929	29141
767	96044	29013
768	96160	28885
769	96286	28760
770	96394	28630
771	96530	28509
772	96644	28380
773	96765	28254
774	96898	28131
775	97007	28002
776	97141	27879
777	97257	27752
778	97370	27623
779	97484	27495
780	97606	27369
781	97733	27245
782	97858	27120
783	97992	26997
784	98155	26883
785	98288	26760
786	98422	26637
787	98552	26514
788	98674	26388
789	98797	26262
790	98928	26139
791	99037	26009
792	99177	25888
793	99353	25776
794	99526	25664
795	99672	25544
796	99798	25419
797	99919	25292
798	100031	25164
799	100165	25041
800	100267	24910
801	100383	24782
802	100498	24655
803	100619	24529
804	100751	24405
805	100884	24282
806	100995	24153
807	101114	24027
808	101241	23902
809	101355	23774
810	101448	23642
811	101561	23514
812	101668	23385
813	101793	23259
814	101896	23129
815	102020	23004
816	102141	22878
817	102251	22750
818	102360	22621
819	102487	22497
820	102606	22370
821	102734	22246
822	102853	22120
823	102973	21994
824	103093	21868
825	103212	21742
826	103331	21615
827	103457	21491
828	103624	21374
829	103820	21264
830	103961	21142
831	104086	21017
832	104203	20890
833	104322	20764
834	104431	20636
835	104544	20508
836	104665	20382
837	104786	20256
838	104900	20129
839	105031	20006
840	105155	19880
841	105278	19755
842	105391	19628
843	105481	19496
844	105594	19369
845	105726	19245
846	105845	19119
847	105963	18993
848	106077	18866
849	106187	18738
850	106302	18612
851	106417	18485
852	106545	18361
853	106658	18234
854	106767	18106
855	106873	17978
856	106982	17851
857	107095	17724
858	107219	17599
859	107327	17471
860	107487	17352
861	107614	17228
862	107727	17101
863	107838	16974
864	107955	16848
865	108071	16722
866	108199	16598
867	108320	16472
868	108448	16348
869	108563	16222
870	108695	16098
871	108813	15972
872	108927	15846
873	109049	15721
874	109171	15595
875	109281	15469
876	109385	15341
877	109500	15215
878	109615	15089
879	109715	14961
880	109876	14841
881	109987	14714
882	110124	14591
883	110234	14465
884	110367	14341
885	110615	14232
886	110764	14110
887	110916	13989
888	111049	13865
889	111206	13744
890	111344	13621
891	111489	13498
892	111627	13375
893	111783	13253
894	111893	13127
895	112076	13008
896	112239	12888
897	112398	12766
898	112530	12642
899	112659	12517
900	112778	12391
901	112912	12267
902	113026	12141
903	113144	12015
904	113275	11890
905	113395	11765
906	113499	11637
907	113610	11511
908	113725	11385
909	113844	11259
910	113954	11132
911	114074	11007
912	114186	10880
913	114309	10755
914	114443	10631
915	114536	10503
916	114667	10378
917	114774	10252
918	114894	10126
919	115011	10001
920	115113	9874
921	115221	9747
922	115337	9621
923	115449	9495
924	115586	9371
925	115706	9246
926	115833	9121
927	115954	8996
928	116086	8872
929	116190	8745
930	116305	8619
931	116419	8494
932	116534	8368
933	116637	8242
934	116757	8116
935	116883	7992
936	117004	7866
937	117114	7741
938	117225	7615
939	117361	7491
940	117483	7366
941	117607	7241
942	117723	7115
943	117857	6991
944	118041	6870
945	118369	6756
946	118625	6639
947	118815	6517
948	118952	6392
949	119090	6267
950	119248	6144
951	119391	6019
952	119557	5896
953	119711	5772
954	119870	5648
955	120014	5523
956	120174	5399
957	120331	5275
958	120495	5151
959	120678	5028
960	120858	4904
961	121117	4784
962	121294	4660
963	121429	4534
964	121556	4408
965	121703	4283
966	121817	4157
967	121913	4030
968	122020	3903
969	122112	3776
970	122238	3650
971	122337	3524
972	122430	3397
973	122535	3270
974	122626	3144
975	122738	3018
976	122844	2891
977	122942	2765
978	123038	2639
979	123144	2513
980	123230	2386
981	123338	2260
982	123442	2134
983	123542	2008
984	123641	1882
985	123753	1757
986	123851	1631
987	123940	1505
988	124042	1379
989	124149	1254
990	124258	1128
991	124369	1002
992	124481	877
993	124651	752
994	124788	627
995	124929	501
996	125061	376
997	125164	250
998	125262	125
999	125385	0
